angle,data
float,float
,
0.0,0.0
0.050020842017507297,0.19875103636366204
0.10004168403501459,0.38957191104973921
0.15006252605252191,0.56484887564511688
0.20008336807002919,0.71758838338380782
0.25010421008753647,0.84169613149847333
0.30012505210504381,0.93222022375754143
0.35014589412255109,0.98554875100840977
0.40016673614005838,0.99955390626770757
0.45018757815756566,0.97367688416989839
0.50020842017507294,0.90895017728822636
0.55022926219258028,0.80795637970532108
0.60025010421008762,0.6747251415700265
0.65027094622759485,0.51457238615121326
0.70029178824510219,0.33388820462434554
0.75031263026260941,0.13988189158383496
0.80033347228011675,-0.059705705641763224
0.85035431429762409,-0.25691104661614306
0.90037515631513132,-0.4438656428714069
0.95039599833263866,-0.61311001041292068
1.0004168403501459,-0.75789130295529872
1.0504376823676533,-0.87243275033041046
1.1004585243851606,-0.95216415148125422
1.1504793664026678,-0.99390422537667333
1.2005002084201752,-0.99598754404969414
1.2505210504376825,-0.95833098313424914
1.3005418924551897,-0.88243703852542865
1.3505627344726969,-0.771333876828595
1.4005835764902044,-0.6294545115830309
1.4506044185077116,-0.46245992612596032
1.5006252605252188,-0.27701320049049871
1.5506461025427263,-0.08051365466900523
1.6006669445602335,0.11919838408062582
1.6506877865777407,0.31415441010820683
1.7007086285952482,0.49657568255932949
1.7507294706127554,0.65918359695254847
1.8007503126302626,0.79549010132705034
1.8507711546477701,0.90005656936333112
1.9007919966652773,0.96871080144546207
1.9508128386827845,0.99871349532766551
2.0008336807002918,0.98886754422950884
2.050854522717799,0.93956580136829604
2.1008753647353067,0.85277540512493377
2.1508962067528139,0.73195929026879092
2.2009170487703211,0.58193801694182157
2.2509378907878284,0.40869743042225226
2.3009587328053356,0.21914982603872721
2.3509795748228428,0.020858148749228492
2.4010004168403505,-0.17826576818491888
2.4510212588578577,-0.37027688516013185
2.5010421008753649,-0.54751396312394784
2.5510629428928722,-0.70290524683306799
2.6010837849103794,-0.83025062772128588
2.6511046269278866,-0.92446902808549258
2.7011254689453938,-0.98180113596655727
2.7511463109629015,-0.99995940160810182
2.8011671529804087,-0.97821931063799195
2.851187994997916,-0.91744829217475077
2.9012088370154232,-0.8200711084261243
2.9512296790329304,-0.68997310673400769
3.0012505210504377,-0.53234519430686189
3.0512713630679453,-0.3534767211441503
3.1012922050854526,-0.16050453511925067
3.1513130471029598,0.03887177808288951
3.201333889120467,0.23669710825353255
3.2513547311379742,0.4250782293704285
3.3013755731554815,0.59649873913050599
3.3513964151729887,0.7441189632250278
3.4014172571904964,0.86204885818368626
3.4514380992080036,0.94558302397056915
3.5014589412255108,0.99138844933495862
3.5514797832430181,0.99763749888185971
3.6015006252605253,0.96408083568128788
3.6515214672780325,0.89205736980591255
3.7015423092955402,0.78444083585063895
3.7515631513130474,0.64552513098984698
3.8015839933305546,0.48085298858109182
3.8516048353480619,0.29699482323447052
3.9016256773655691,0.1012865714241709
3.9516465193830763,-0.098463012204354994
4.0016673614005835,-0.29428392396113362
4.0516882034180908,-0.47836291407149739
4.101709045435598,-0.64335523515837756
4.1517298874531052,-0.78267769748994853
4.2017507294706133,-0.89077133809513587
4.2517715714881206,-0.96332322325544484
4.3017924135056278,-0.99743853445892727
4.351813255523135,-0.99175607159073353
4.4018340975406423,-0.94650256478569006
4.4518549395581495,-0.86348362790125133
4.5018757815756567,-0.74601171456704385
4.5518966235931639,-0.59877395136293088
4.6019174656106712,-0.42764512157868645
4.6519383076281784,-0.23945326149887067
4.7019591496456856,-0.04170722191562555
4.7519799916631928,0.15770293484137179
4.802000833680701,0.35082074820634396
4.8520216756982082,0.52994082196689052
4.9020425177157154,0.68791626939170247
4.9520633597332226,0.81844387384307993
5.0020842017507299,0.91631558697256887
5.0521050437682371,0.97762632972760577
5.1021258857857443,0.99992980491389261
5.1521467278032516,0.98233610439592844
5.2021675698207588,0.92554721641069126
5.252188411838266,0.83182901625348848
5.3022092538557732,0.70492085790695314
5.3522300958732805,0.54988637390506134
5.4022509378907877,0.37291143651409103
5.4522717799082958,0.18105734157464465
5.502292621925803,-0.018020937036341552
5.5523134639433103,-0.21638018068331236
5.6023343059608175,-0.40610586020886658
5.6523551479783247,-0.57962792546104247
5.702375989995832,-0.73002285011638313
5.7523968320133392,-0.85128988021744589
5.8024176740308464,-0.93859046411460645
5.8524385160483536,-0.98844131056310724
5.9024593580658609,-0.998853371961819
5.9524802000833681,-0.96941120730575692
6.0025010421008753,-0.90128955827241053
6.0525218841183825,-0.79720647705643433
6.1025427261358907,-0.66131487615098949
6.1525635681533979,-0.49903682723692583
6.2025844101709051,-0.31684722065019316
6.2526052521884123,-0.12201541740969349
6.3026260942059196,0.077684798116447851
6.3526469362234268,0.27428539202438162
6.402667778240934,0.45994200523994222
6.4526886202584413,0.62724694326125885
6.5027094622759485,0.76952474299519957
6.5527303042934557,0.88109852357782403
6.6027511463109629,0.95751649378737169
6.6527719883284702,0.99572957840933274
6.7027928303459774,0.99421307626581279
6.7528136723634855,0.95302749575667911
6.8028345143809927,0.87381614057583179
6.8528553563985,0.75973954193245319
6.9028761984160072,0.61534935343007791
6.9528970404335144,0.44640674019483734
7.0029178824510216,0.25965250852239147
7.0529387244685289,0.062538147865232083
7.1029595664860361,-0.13707148342126158
7.1529804085035433,-0.3312119657422723
7.2030012505210506,-0.51213709841810695
7.2530220925385578,-0.6726279729091762
7.303042934556065,-0.80628100709698303
7.3530637765735722,-0.90776344806007936
7.4030846185910804,-0.97302614879024252
7.4531054606085876,-0.99946512906288865
7.5031263026260948,-0.98602547418681274
7.553147144643602,-0.93324342607555744
7.6031679866611093,-0.8432249872076728
7.6531888286786165,-0.71956189117734248
7.7032096706961237,-0.56718829260842862
7.753230512713631,-0.39218389450099989
7.8032513547311382,-0.20153136822458309
7.8532721967486454,-0.0028377450947059887
7.9032930387661526,0.19596910399772469
7.9533138807836599,0.38695679044855857
8.0033347228011671,0.56250491005918946
8.0533555648186752,0.71560909698490005
8.1033764068361815,0.84016049776735691
8.1533972488536897,0.93118951444398357
8.203418090871196,0.98506409138978379
8.2534389328887041,0.99963463425140164
8.3034597749062105,0.97431977871126163
8.3534806169237186,0.91012958691017365
8.4035014589412267,0.80962524599166763
8.453522300958733,0.67681687679519209
8.5035431429762411,0.51700353012889244
8.5535639849937475,0.33656175476699979
8.6035848270112556,0.14269117330362996
8.6536056690287619,-0.056872782619384089
8.7036265110462701,-0.25416751585316777
8.7536473530637764,-0.44132097118076208
8.8036681950812845,-0.61086573013523482
8.8536890370987908,-0.75603696082087546
8.903709879116299,-0.87104233454681568
8.9537307211338053,-0.95129313960555684
9.0037515631513134,-0.99358737076223536
9.0537724051688215,-0.99623748918817989
9.1037932471863279,-0.95913775522051103
9.153814089203836,-0.88376844737219262
9.2038349312213423,-0.77313679925418455
9.2538557732388504,-0.63165701102505423
9.3038766152563568,-0.46497412290847395
9.3538974572738649,-0.27973877822099164
9.4039182992913712,-0.083341862860126154
9.4539391413088794,0.11638039086920947
9.5039599833263857,0.31145906973936283
9.5539808253438938,0.49411053905040386
9.6040016673614019,0.65704700947158334
9.6540225093789083,0.79376731966429248
9.7040433513964164,0.89881633246661985
9.7540641934139227,0.96800259473781125
9.8040850354314308,0.99856557624005993
9.8541058774489372,0.98928581473006538
9.9041267194664453,0.94053357247387648
9.9541475614839516,0.85425406279118443
10.00416840350146,0.73388983608959257
10.054189245518966,0.58424342218432279
10.104210087536474,0.41128570947147952
10.154230929553981,0.22191770662148222
10.204251771571489,0.023695192495334964
10.254272613588997,-0.17547275925422015
10.304293455606503,-0.36763935203549736
10.354314297624011,-0.54513714331503937
10.404335139641518,-0.70088397539436798
10.454355981659026,-0.82866555333567626
10.504376823676532,-0.92338339518368484
10.55439766569404,-0.98125826127580906
10.604418507711546,-0.99998094581580788
10.654439349729055,-0.97880441413077168
10.704460191746561,-0.91857360933700138
10.754481033764069,-0.82169173912952942
10.804501875781575,-0.69202438785161213
10.854522717799084,-0.53474527977030095
10.904543559816592,-0.35612984759986788
10.954564401834098,-0.16330484288405284
11.004585243851606,0.036036021222980261
11.054606085869112,0.23393904893054115
11.104626927886621,0.42250791408649763
11.154647769904127,0.59421872340502113
11.204668611921635,0.74222021963183027
11.254689453939141,0.86060714654749315
11.304710295956649,0.94465586855176953
11.354731137974156,0.99101284361295972
11.404751979991664,0.99782842951613837
11.45477282200917,0.96483068454402643
11.504793664026678,0.89333621794511731
11.554814506044186,0.78619765725562574
11.604835348061693,0.64768982852786916
11.654856190079201,0.48333919087127669
11.704877032096707,0.29970333086390488
11.754897874114215,0.10410931500212017
11.804918716131722,-0.095638660080271609
11.85493955814923,-0.29157065487426365
11.904960400166736,-0.47586898739460198
11.954981242184244,-0.64118015850723009
12.005002084201751,-0.78090825637178085
12.055022926219259,-0.88947813316895996
12.105043768236765,-0.96255785336740629
12.155064610254273,-0.99723153784956442
12.205085452271781,-0.99211570741989119
12.255106294289288,-0.94741448359224201
12.305127136306796,-0.86491144414625631
12.355147978324302,-0.74789845841590252
12.40516882034181,-0.60104434178043309
12.455189662359317,-0.43020857004056418
12.505210504376825,-0.24220748647176424
12.555231346394331,-0.044542329887884625
12.605252188411839,0.15490006461118405
12.655273030429345,0.34816195017449675
12.705293872446854,0.52753218211234687
12.75531471446436,0.68585389238801742
12.805335556481868,0.8168100484842119
12.855356398499376,0.91517550285191862
12.905377240516883,0.9770254761747772
12.955398082534391,0.99989215597151682
13.005418924551897,0.98286316225592096
13.055439766569405,0.92661795147683002
13.105460608586911,0.83340070622181384
13.15548145060442,0.70693079238468093
13.205502292621926,0.55225435655379573
13.255523134639434,0.37554298488182114
13.30554397665694,0.18384745694338475
13.355564818674448,-0.015183580204208966
13.405585660691955,-0.21360879285866635
13.455606502709463,-0.40351101970075237
13.505627344726971,-0.57731316634471963
13.555648186744477,-0.72808053122615912
13.605669028761985,-0.849797500031375
13.655689870779492,-0.93760756856701799
13.705710712797,-0.98800711716324119
13.755731554814506,-0.99898520501611965
13.805752396832014,-0.97010380667845708
13.855773238849521,-0.9025152892648266
13.905794080867029,-0.79891643303078719
13.955814922884535,-0.66344082990411624
14.005835764902043,-0.50149395326405788
14.05585660691955,-0.31953747968062945
14.105877448937058,-0.12483146817137036
14.155898290954566,0.074855315982706339
14.205919132972072,0.27155537478917391
14.25593997498958,0.45742038052676759
14.305960817007087,0.62503432383687474
14.355981659024595,0.76770941232261791
14.406002501042101,0.87975291330819172
14.456023343059609,0.95669429373881032
14.506044185077116,0.99546359434444509
14.556065027094624,0.99451392094253444
14.60608586911213,0.9538831654794846
14.656106711129638,0.87519249414289846
14.706127553147144,0.76158166286882112
14.756148395164653,0.6175837411536963
14.806169237182161,0.44894424268807109
14.856190079199667,0.2623918794954323
14.906210921217175,0.065370086480661005
14.956231763234682,-0.13425997144760457
15.00625260525219,-0.32853305967203456
15.056273447269696,-0.50969768654049408
15.106294289287204,-0.67052538770075198
15.15631513130471,-0.80459914165811919
15.206335973322219,-0.90656940878224446
15.256356815339725,-0.97236757781254224
15.306377657357233,-0.99936830335185112
15.356398499374739,-0.98649425708603133
15.406419341392247,-0.93425911315837495
15.456440183409756,-0.84474705258336591
15.506461025427262,-0.72152960447321357
15.55648186744477,-0.56952314211023558
15.606502709462276,-0.39479271976852659
15.656523551479784,-0.20431007719099145
15.706544393497291,-0.0056754673375801548
15.756565235514799,0.19318559352915765
15.806586077532305,0.38433855375653769
15.856606919549813,0.56015641472616906
15.90662776156732,0.71362404791943801
15.956648603584828,0.83861809838049961
16.006669445602334,0.93015130643499189
16.056690287619844,0.98457149923381093
16.10671112963735,0.99970731236388333
16.156731971654857,0.97495482723722005
16.206752813672363,0.91130166742835816
16.256773655689873,0.81128759251695659
16.306794497707379,0.67890316174031695
16.356815339724886,0.51943051077360458
16.406836181742392,0.33923259464063665
16.456857023759902,0.14549930595802715
16.506877865777408,-0.054039401611101448
16.556898707794915,-0.2514219383266007
16.606919549812421,-0.43877274561466956
16.656940391829931,-0.60861653066979216
16.706961233847437,-0.75417653046186084
16.756982075864943,-0.86964490442180498
16.807002917882453,-0.95041446714368882
16.85702375989996,-0.99326251497407003
16.907044601917466,-0.99647941181202948
16.957065443934972,-0.95993680354937305
17.007086285952482,-0.88509273939653066
17.057107127969989,-0.77493349575336823
17.107127969987495,-0.63385442385101809
17.157148812005001,-0.46748457534112636
17.207169654022511,-0.28246210326729243
17.257190496040018,-0.086169399914768879
17.307211338057524,0.11356146046821272
17.357232180075034,0.30876122124874955
17.40725302209254,0.49164141656149352
17.457273864110046,0.65490513091362723
17.507294706127553,0.79203814594139621
17.557315548145063,0.89756885756967131
17.607336390162569,0.96728659288586194
17.657357232180075,0.99840961589016641
17.707378074197582,0.98969611869652308
17.757398916215092,0.94149376963806897
17.807419758232598,0.85572584130883911
17.857440600250104,0.73581447203246642
17.907461442267611,0.58654412262354616
17.95748228428512,0.41387067651361859
18.007503126302627,0.22468380014234279
18.057523968320133,0.026532045428482309
18.107544810337643,-0.17267833727412832
18.157565652355149,-0.36499885837975304
18.207586494372656,-0.54275593361841379
18.257607336390162,-0.69885705986777247
18.307628178407672,-0.82707380586096613
18.357649020425178,-0.92229032644766851
18.407669862442685,-0.98070748469535041
18.457690704460191,-0.99999443736351923
18.507711546477701,-0.9793816354942152
18.557732388495207,-0.91969152939734811
18.607753230512714,-0.82330575290266172
18.657774072530223,-0.69407009622592009
18.70779491454773,-0.5371410590297655
18.757815756565236,-0.35878010620837086
18.807836598582742,-0.1661038355854258
18.857857440600252,0.033199974171715177
18.907878282617759,0.23117910574003714
18.957899124635265,0.41993419642515351
19.007919966652771,0.59193392254701449
19.057940808670281,0.7403154990776768
19.107961650687788,0.85915850460251109
19.157982492705294,0.94372110599549885
19.208003334722804,0.99062925744942165
19.25802417674031,0.99801132482423449
19.308045018757817,0.96557276380526502
19.358065860775323,0.89460787221442717
19.408086702792833,0.78794814755755604
19.458107544810339,0.64984931034053617
19.508128386827845,0.48582150092113807
19.558149228845352,0.30240942503833357
19.608170070862862,0.10693122020717896
19.658190912880368,-0.09281353779590501
19.708211754897874,-0.28885503782330024
19.758232596915381,-0.47337122863352876
19.808253438932891,-0.63899991855188831
19.858274280950397,-0.77913252674511746
19.908295122967903,-0.88817776544132188
19.958315964985413,-0.9617847321805586
20.008336807002919,-0.99701651072067643
20.058357649020426,-0.99246735392635244
20.108378491037932,-0.94831877304671353
20.158399333055442,-0.86633229542076429
20.208420175072948,-0.74977917957800533
20.258441017090455,-0.60330989209999075
20.308461859107961,-0.43276855411309267
20.358482701125471,-0.24495976099295683
20.408503543142977,-0.047377079169067637
20.458524385160484,0.15209594699966802
20.508545227177994,0.34550034845943306
20.5585660691955,0.52511929413956304
20.608586911213006,0.68378599233089887
20.658607753230513,0.81516964550641002
20.708628595248022,0.91402804899368428
20.758649437265529,0.97641675481806911
20.808670279283035,0.99984645508415437
20.858691121300541,0.98338230530223691
20.908711963318051,0.92768122466148051
20.958732805335558,0.83496568496973389
21.008753647353064,0.70893503408063152
21.05877448937057,0.55461789200123135
21.10879533138808,0.37817150907195735
21.158816173405587,0.18663609182284674
21.208837015423093,-0.012346101101534179
21.258857857440603,-0.21083568488227739
21.308878699458109,-0.40091292979368104
21.358899541475616,-0.57499375823316912
21.408920383493122,-0.72613234923924952
21.458941225510632,-0.84829827658457924
21.508962067528138,-0.93661712264060637
21.558982909545644,-0.98756496752638767
21.609003751563151,-0.99910899342894066
21.659024593580661,-0.97078859398619
21.709045435598167,-0.90373375246999499
21.759066277615673,-0.8006199554801593
21.809087119633183,-0.66556144109200432
21.85910796165069,-0.5039470408539426
21.909128803668196,-0.32222516553534986
21.959149645685702,-0.12764651368852686
22.009170487703212,0.07202523105307064
22.059191329720718,0.26882317076919926
22.109212171738225,0.45489507229260118
22.159233013755731,0.62281667112768779
22.209253855773241,0.76588789942936697
22.259274697790747,0.87840021855248174
22.309295539808254,0.95586438960958564
22.35931638182576,0.99518959399695117
22.40933722384327,0.99480675698419285
22.459358065860776,0.95473115375911799
22.509378907878283,0.87656179994809214
22.559399749895793,0.7634176509301337
22.609420591913299,0.6198131555906643
22.659441433930805,0.45147812991708236
22.709462275948312,0.26512913747562422
22.759483117965821,0.068201498682979284
22.809503959983328,-0.13144737830344927
22.859524802000834,-0.32585150798635359
22.90954564401834,-0.50725417016250052
22.95956648603585,-0.66841740287647755
23.009587328053357,-0.80291079693248024
23.059608170070863,-0.90536806907009215
23.109629012088373,-0.97170117654015142
23.159649854105879,-0.99926342991431449
23.209670696123386,-0.98695509593104236
23.259691538140892,-0.93526727682685595
23.309712380158402,-0.84626231536864516
23.359733222175908,-0.72349150742579005
23.409754064193415,-0.57185340534843832
23.459774906210921,-0.39739836584393901
23.509795748228431,-0.2070871408864654
23.559816590245937,-0.0085131438769711458
23.609837432263443,0.19040052737304075
23.65985827428095,0.38171722205784453
23.70987911629846,0.55780340855804678
23.759899958315966,0.71163325217266071
23.809920800333472,0.83706894575854951
23.859941642350982,0.9291056080910689
23.909962484368489,0.98407097850723935
23.959983326385995,0.99977194001988978
24.010004168403501,0.97558202463384935
24.060025010421011,0.91246640940422652
24.110045852438517,0.81294340589462555
24.160066694456024,0.6809839796049455
24.21008753647353,0.52185330854132128
24.26010837849104,0.34190070273746465
24.310129220508546,0.14830626693366561
24.360150062526053,-0.051205585433592431
24.410170904543563,-0.24867433614608467
24.460191746561069,-0.43622098669352927
24.510212588578575,-0.60636243012896918
24.560233430596082,-0.75231002685994497
24.610254272613592,-0.86824047120863179
24.660275114631098,-0.94952814117142714
24.710295956648604,-0.99292966062817944
