angle,data
float,float
,
0.0,nan
0.050020842017507297,0.099874892348548044
0.10004168403501459,0.098876144015113993
0.15006252605252193,0.09688863482567972
0.20008336807002919,0.093932239860397448
0.25010421008753653,0.090036523051454209
0.30012505210504381,0.085240441543923462
0.35014589412255109,0.079591956124546059
0.40016673614005838,0.073147551614144879
0.45018757815756572,0.065971672019751293
0.50020842017507305,0.058136076094914224
0.55022926219258017,0.049719119752590912
0.60025010421008762,0.040804972506477188
0.65027094622759485,0.031482775776370597
0.70029178824510219,0.021845751474497521
0.75031263026260941,0.011990269786942842
0.80033347228011664,0.0020148854723551768
0.8503543142976242,-0.0079806476850520225
0.90037515631513143,-0.017896374412756932
0.95039599833263855,-0.027633137502065863
1.0004168403501461,-0.037093569379606395
1.0504376823676531,-0.046183065782497312
1.1004585243851606,-0.054810731800408075
1.1504793664026678,-0.062890290824131112
1.2005002084201752,-0.07034094731116336
1.2505210504376825,-0.077088194740651095
1.3005418924551897,-0.083064560678162147
1.3505627344726967,-0.088210281499629284
1.4005835764902044,-0.092473900027238431
1.4506044185077116,-0.095812780100901634
1.5006252605252188,-0.098193532939608946
1.5506461025427265,-0.099592351029038725
1.6006669445602335,-0.099995246196559445
1.6506877865777407,-0.099398189492877528
1.7007086285952482,-0.097807151481502319
1.7507294706127554,-0.095238042533146661
1.8007503126302626,-0.091716553722117178
1.8507711546477701,-0.087277899915719825
1.9007919966652771,-0.08196646762579396
1.9508128386827843,-0.075835371143860852
2.0008336807002922,-0.068945921398517185
2.050854522717799,-0.061367012846514357
2.1008753647353067,-0.05317443452859727
2.1508962067528135,-0.044450112179543089
2.2009170487703207,-0.035281288971300784
2.2509378907878284,-0.02575965308178374
2.300958732805336,-0.015980420813635265
2.3509795748228428,-0.0060413844317606102
2.4010004168403505,0.0039580657587398038
2.4510212588578577,0.013917935315036378
2.5010421008753649,0.023738625600408403
2.5510629428928722,0.033321929770022241
2.6010837849103794,0.042572014838798355
2.6511046269278866,0.051396380010698017
2.7011254689453934,0.059706781686135635
2.7511463109629011,0.067420115897454669
2.8011671529804087,0.074459249348109435
2.8511879949979164,0.080753790745182075
2.9012088370154232,0.086240794711888502
2.9512296790329304,0.090865391240978644
3.0012505210504377,0.094581334394482963
3.0512713630679453,0.097351464762821055
3.101292205085453,0.099148081058672427
3.1513130471029598,0.099953217129695432
3.2013338891204666,0.099758821619935628
3.2513547311379742,0.098566838483342162
3.301375573155481,0.096389187544238836
3.3513964151729887,0.093247645299151249
3.4014172571904964,0.089173627151971413
3.451438099208004,0.084207873260099375
3.5014589412255108,0.078400041133119602
3.5514797832430181,0.071808209057988348
3.6015006252605253,0.06449829531651341
3.651521467278033,0.0565433990029236
3.7015423092955402,0.04802306903335718
3.7515631513130479,0.03902250865717305
3.8015839933305542,0.029631723424957901
3.8516048353480614,0.019944621133555662
3.9016256773655686,0.010058072748648006
3.9516465193830759,7.0943695676395357e-05
4.0016673614005844,-0.0099168947938331753
4.0516882034180908,-0.019805564393992281
4.101709045435598,-0.029496178467220524
4.1517298874531052,-0.038891830930037785
4.2017507294706125,-0.047898565313324482
4.2517715714881206,-0.056426314326456617
4.3017924135056278,-0.064389800529686236
4.3518132555231341,-0.071709389108027932
4.4018340975406414,-0.078311884218941419
4.4518549395581495,-0.084131260950324749
4.5018757815756567,-0.089109325569244557
4.5518966235931639,-0.093196297458921384
4.6019174656106712,-0.096351306924603669
4.6519383076281775,-0.098542803890274561
4.7019591496456856,-0.099748873399224156
4.7519799916631928,-0.099957454763488496
4.802000833680701,-0.099166462170658873
4.8520216756982082,-0.097383805541985197
4.9020425177157154,-0.094627311433227834
4.9520633597332235,-0.090924544769187265
5.0020842017507299,-0.086312533194628671
5.0521050437682371,-0.080837396798049799
5.1021258857857443,-0.074553886911070344
5.1521467278032516,-0.067524838595437342
5.2021675698207588,-0.059820542292780443
5.2521884118382669,-0.051518040920609964
5.3022092538557732,-0.042700359443596625
5.3522300958732805,-0.033455674624417675
5.4022509378907877,-0.023876433256647123
5.4522717799082958,-0.014058427697370091
5.5022926219258022,-0.0040998379441745669
5.5523134639433103,0.0058997501642408245
5.6023343059608175,0.015840340805869046
5.6523551479783247,0.025622528133021572
5.7023759899958328,0.035148490330219606
5.7523968320133392,0.044322967831769366
5.8024176740308464,0.053054215916857106
5.8524385160483536,0.061254922156215974
5.9024593580658609,0.068843079535900631
5.9524802000833681,0.075742806526944872
6.0025010421008753,0.081885105900201038
6.0525218841183834,0.087208554698224194
6.1025427261358907,0.091659918464487289
6.1525635681533979,0.095194683587620066
6.2025844101709051,0.097777502437279562
6.2526052521884123,0.099382546840226432
6.3026260942059196,0.099993766361913747
6.3526469362234268,0.099605048810735633
6.4026677782409331,0.098220281359907347
6.4526886202584404,0.095853311675756253
6.5027094622759485,0.092527809441139752
6.5527303042934557,0.088277029658757611
6.602751146310962,0.083143480101319889
6.6527719883284702,0.077178496234073135
6.7027928303459774,0.070441727860448666
6.7528136723634855,0.063000542624384037
6.8028345143809927,0.054929352334274317
6.8528553563985,0.0463088688453408
6.9028761984160072,0.037225296941542196
6.9528970404335135,0.027769472288251662
7.0029178824510216,0.018035953076137812
7.0529387244685289,0.0081220744398176059
7.1029595664860361,-0.0018730248929166304
7.1529804085035433,-0.011849393987786949
7.2030012505210506,-0.021707269212784652
7.2530220925385569,-0.031348071873899208
7.3030429345560659,-0.040675394001476239
7.3530637765735714,-0.04959596242934472
7.4030846185910804,-0.058020571525928877
7.4531054606085876,-0.065864975250032209
7.5031263026260957,-0.073050729610759757
7.553147144643602,-0.079505977106956838
7.6031679866611084,-0.085166165301798324
7.6531888286786156,-0.08997469234677502
7.7032096706961228,-0.093883472999846285
7.753230512713631,-0.096853419477573588
7.8032513547311373,-0.098854832332726031
7.8532721967486445,-0.099867697448576265
7.9032930387661517,-0.099881886179949642
7.9533138807836607,-0.098897256639616279
8.0033347228011671,-0.096923655117162333
8.0533555648186752,-0.093980817616154289
8.1033764068361815,-0.090098172494209483
8.1533972488536897,-0.085314546179620365
8.203418090871196,-0.079677774907259802
8.2534389328887041,-0.073244226356560471
8.3034597749062105,-0.066078235975010502
8.3534806169237186,-0.058251463624099165
8.4035014589412249,-0.04984217698108806
8.453522300958733,-0.040934468862728446
8.5035431429762411,-0.031617416297580636
8.5535639849937475,-0.021984189756247718
8.6035848270112538,-0.012131121447234605
8.6536056690287637,-0.0021567419954178213
8.7036265110462701,0.0078392048636113376
8.7536473530637764,0.017756759720317206
8.8036681950812827,0.027496747084726492
8.8536890370987908,0.036961767140734403
8.903709879116299,0.046057169743704107
8.9537307211338053,0.054692000921335415
9.0037515631513134,0.062779912412872174
9.0537724051688198,0.070240025151176111
9.1037932471863297,0.076997738052936859
9.153814089203836,0.082985474029069195
9.2038349312213423,0.088143355755175179
9.2538557732388504,0.092419804444478282
9.303876615256355,0.095772055635337527
9.3538974572738649,0.098166586835662456
9.403918299291373,0.099579452747582689
9.4539391413088794,0.099996524720340166
9.5039599833263839,0.099413632036657179
9.553980825343892,0.097836603619940982
9.6040016673614019,0.095281209745031237
9.6540225093789083,0.091773004335580111
9.7040433513964164,0.087347069424966395
9.7540641934139209,0.08204766433613464
9.8040850354314308,0.075927783088677314
9.8541058774489354,0.06904862445890203
9.9041267194664453,0.061478979992475313
9.9541475614839516,0.053294546089331596
10.00416840350146,0.044577167040157351
10.054189245518966,0.035414016583936281
10.104210087536474,0.025896726171100504
10.154230929553981,0.016120468649548081
10.204251771571489,0.0061830065367389775
10.254272613588997,-0.0038162856049097638
10.304293455606503,-0.013777414913054398
10.354314297624013,-0.023600770153465622
10.404335139641518,-0.033188117831771669
10.454355981659026,-0.042443584527834255
10.504376823676534,-0.051274615629368636
10.554397665694038,-0.05959290087753788
10.604418507711546,-0.067315257468997247
10.654439349729056,-0.074364461883463573
10.704460191746561,-0.08067002211842822
10.754481033764069,-0.086168882608805064
10.804501875781577,-0.090806054782165246
10.854522717799084,-0.094535166944183957
10.904543559816592,-0.097318927995262428
10.954564401834096,-0.099129500341335774
11.004585243851604,-0.099948778269650429
11.054606085869114,-0.099768569005749499
11.104626927886619,-0.098590674641221357
11.154647769904127,-0.096426874112738398
11.204668611921637,-0.093298805412815766
11.25468945393914,-0.089237749209958916
11.304710295956648,-0.084284316042216978
11.354731137974156,-0.078488040211990628
11.404751979991666,-0.071906884443349917
11.45477282200917,-0.064606660255089543
11.504793664026678,-0.056660369845973335
11.554814506044185,-0.048147476073138407
11.604835348061693,-0.039153107824022149
11.654856190079201,-0.029767208727980998
11.704877032096707,-0.020083637720519798
11.754897874114215,-0.010199230454507102
11.804918716131723,-0.00021283094420476711
11.85493955814923,0.0097756968742824801
11.904960400166733,0.019666467781779828
11.954981242184243,0.029360574127648364
12.005002084201752,0.038761074905698023
12.055022926219261,0.047773965163690146
12.105043768236765,0.056309116052286057
12.155064610254273,0.064281176113031968
12.205085452271778,0.071610424792412752
12.255106294289286,0.078223569646934221
12.305127136306796,0.0840544792671295
12.355147978324304,0.08904484459123313
12.405168820341812,0.093144761995499425
12.455189662359315,0.0963132323300947
12.505210504376825,0.098518570910405043
12.555231346394331,0.09973872436364295
12.605252188411839,0.099961491162498375
12.655273030429347,0.099184643640284814
12.705293872446857,0.09741595026764896
12.75531471446436,0.094673097967853892
12.805335556481866,0.090983515247706703
12.855356398499374,0.086384097912601043
12.905377240516884,0.080920840108715586
12.955398082534392,0.07464837438182137
13.005418924551895,0.067629425352119243
13.055439766569405,0.059934182468449171
13.105460608586911,0.0516395981141754
13.15548145060442,0.042828618083845749
13.205502292621924,0.033589352125701799
13.255523134639434,0.024014192844746263
13.30554397665694,0.014198891777215006
13.355564818674447,0.0042416018757979179
13.405585660691955,-0.0057581040193177557
13.455606502709465,-0.015700228908259839
13.505627344726973,-0.025485351600873951
13.555648186744476,-0.035015620928043667
13.605669028761985,-0.044195734252803764
13.655689870779494,-0.05293389049613717
13.705710712797,-0.06114270814724132
13.755731554814506,-0.068740099078094419
13.805752396832016,-0.075650089424280975
13.855773238849521,-0.081803579323153186
13.905794080867029,-0.087139033912087438
13.955814922884535,-0.091603098676703743
14.005835764902045,-0.095151132995742016
14.055856606919551,-0.097747656546960104
14.105877448937056,-0.09936670411019935
14.155898290954564,-0.09999208521938216
14.20591913297207,-0.099617546067111484
14.25593997498958,-0.098246832042707732
14.305960817007088,-0.095893650278302989
14.355981659024597,-0.092581532577652614
14.406002501042099,-0.08834360009818204
14.456023343059606,-0.083222232139661512
14.506044185077114,-0.077268642351407735
14.556065027094624,-0.070542366596141104
14.606085869112132,-0.063110667591665726
14.656106711129636,-0.055047862284129723
14.706127553147144,-0.046434578678966498
14.756148395164653,-0.037356949561347941
14.806169237182159,-0.027905751168815218
14.856190079199667,-0.018175495429458621
14.906210921217177,-0.0082634848431876184
14.956231763234682,0.0017311605426958421
15.00625260525219,0.01170849433338006
15.056273447269694,0.021568743249902322
15.106294289287204,0.031213304861352986
15.15631513130471,0.040545733608593593
15.20633597332222,0.049472705259291039
15.256356815339725,0.057904950149672452
15.306377657357233,0.06575814588065787
15.356398499374739,0.072953760541325519
15.406419341392247,0.079419838027588341
15.456440183409756,0.085091717602778116
15.506461025427262,0.089912680504650622
15.55648186744477,0.09383451713267843
15.606502709462276,0.096818009143738393
15.656523551479786,0.098833321635359336
15.706544393497293,0.099860301494517731
15.756565235514801,0.099888678928703192
15.806586077532305,0.09891817016372749
15.856606919549813,0.096958480281520626
15.906627761567321,0.094029206169313262
15.956648603584828,0.090159640550935005
16.006669445602334,0.085388479059695876
16.056690287619848,0.079763433282335594
16.10671112963735,0.073340753643375001
16.156731971654857,0.066184666901277223
16.206752813672367,0.058366733881179744
16.256773655689873,0.049965133867098221
16.306794497707383,0.041063882809528329
16.356815339724886,0.031751993166468484
16.406836181742392,0.022122583779331739
16.456857023759902,0.012271948685100176
16.506877865777408,0.0022985941765176765
16.556898707794915,-0.0076977462602492164
16.606919549812421,-0.017617109279890797
16.656940391829931,-0.027360301310816459
16.706961233847434,-0.036829890490271522
16.756982075864943,-0.045931180982413444
16.807002917882453,-0.054573159936092686
16.857023759899963,-0.062669407612815808
16.907044601917466,-0.07013896158365962
16.957065443934972,-0.0769071263530412
17.007086285952482,-0.082906220313258339
17.057107127969989,-0.088076252560133628
17.107127969987495,-0.092365522801759192
17.157148812005001,-0.095731138361053875
17.207169654022511,-0.098139443102315899
17.257190496040018,-0.099566353992339263
17.307211338057524,-0.099997601930674793
17.357232180075034,-0.099428874440486981
17.407253022092537,-0.097865858793296706
17.457273864110046,-0.095324185136362705
17.507294706127553,-0.091829270191231605
17.557315548145066,-0.087416063086712681
17.607336390162565,-0.08212869586776006
17.657357232180072,-0.076020042175345082
17.707378074197582,-0.069151188510295447
17.757398916215092,-0.061590823368686487
17.807419758232598,-0.053414550357253843
17.857440600250104,-0.044704132157821763
17.907461442267614,-0.035546672900919396
17.95748228428512,-0.026033747125015605
18.007503126302627,-0.016260484031662803
18.057523968320133,-0.0063246161940611056
18.107544810337643,0.0036744977681163471
18.157565652355149,0.013636866774321188
18.207586494372656,0.023462867193347781
18.257607336390159,0.033054239079057246
18.307628178407672,0.042315068769261166
18.357649020425178,0.051152748021759287
18.407669862442685,0.059478900096248788
18.457690704460191,0.067210263521171099
18.507711546477701,0.074269524707959222
18.557732388495207,0.080586091086434553
18.607753230512714,0.086096797030145666
18.657774072530227,0.090746535512213733
18.70779491454773,0.09448880917526864
18.75781575656524,0.097286195304808171
18.807836598582746,0.099110720056057311
18.857857440600245,0.099944138192289825
18.907878282617762,0.099778115537045797
18.957899124635265,0.098614312315918121
19.007919966652764,0.096464366554235237
19.057940808670281,0.093349777696919045
19.107961650687791,0.089301691614122047
19.157982492705294,0.084360589142776443
19.208003334722804,0.078575881278403092
19.258024176740307,0.072005415065452993
19.308045018757817,0.064714895127256034
19.358065860775326,0.05677722662011575
19.408086702792836,0.048271786182211618
19.458107544810336,0.039283628167664175
19.508128386827842,0.029902634103527226
19.558149228845352,0.020222613875017559
19.608170070862862,0.010340367627231228
19.658190912880368,0.00035471776426077017
19.708211754897874,-0.0096344792742556473
19.758232596915377,-0.019527331576948415
19.808253438932887,-0.029224910679240379
19.858274280950397,-0.038630240847393527
19.908295122967907,-0.047649268835298519
19.958315964985413,-0.056191804416361957
20.008336807002919,-0.064172422285229902
20.058357649020426,-0.071511316310373663
20.108378491037925,-0.078135097594896008
20.158399333055442,-0.083977528365090315
20.208420175072948,-0.088980184347752955
20.258441017090455,-0.093093039012630552
20.308461859107961,-0.096274963837366723
20.358482701125471,-0.098494139592519694
20.408503543142977,-0.099728374533627595
20.458524385160484,-0.099965326318591938
20.508545227177997,-0.099202625430963171
20.5585660691955,-0.097447898875090339
20.608586911213006,-0.094718693906186868
20.658607753230516,-0.091042302557810539
20.708628595248026,-0.086455488721731477
20.758649437265529,-0.081004120509193589
20.808670279283035,-0.074742711570135012
20.858691121300541,-0.067733875956947687
20.908711963318048,-0.060047701984360491
20.958732805335558,-0.0517610513466773
21.008753647353068,-0.042956790501331388
21.05877448937057,-0.033722962004756329
21.108795331388077,-0.024151904087367781
21.158816173405587,-0.014339327271788993
21.208837015423093,-0.0043833572682100419
21.258857857440606,0.0056164462821559624
21.308878699458109,0.015560085402880452
21.358899541475612,0.025348123761503527
21.408920383493122,0.034882681032266882
21.458941225510632,0.044068411698793164
21.508962067528138,0.052813458508678579
21.558982909545644,0.061030371045496468
21.609003751563154,0.068636980232420819
21.659024593580661,0.075557220022527738
21.709045435598167,0.081721888058783443
21.759066277615677,0.087069337697261662
21.809087119633183,0.091546094473171413
21.85910796165069,0.09510739084518216
21.909128803668199,0.09771761387063288
21.959149645685702,0.099350661334683801
22.009170487703209,0.099990202772349296
22.059191329720715,0.099629842773009819
22.109212171738228,0.098273184934551089
22.159233013755728,0.09593379582733555
22.209253855773238,0.092635069328620923
22.259274697790747,0.088409992683886218
22.309295539808254,0.083300816634637287
22.35931638182576,0.077358632911175285
22.40933722384327,0.070642863315633742
22.459358065860773,0.063220665504277629
22.509378907878286,0.055166261411385364
22.559399749895796,0.04656019503029929
22.609420591913295,0.037488526973977199
22.659441433930802,0.028041973869397108
22.709462275948312,0.018315001191792857
22.759483117965821,0.0084048786104742312
22.809503959983331,-0.0015892927072954643
22.859524802000838,-0.011567571107380381
22.90954564401834,-0.021430173864731561
22.959566486035854,-0.031078475010045681
23.00958732805336,-0.040415991588863442
23.059608170070863,-0.049349348490568268
23.109629012088369,-0.05778921219892319
23.159649854105879,-0.065651184126694129
23.209670696123386,-0.072856644601062559
23.259691538140892,-0.079333539059850744
23.309712380158402,-0.085017098596741725
23.359733222175908,-0.089850487649926314
23.409754064193411,-0.093785372357445496
23.459774906210924,-0.096782403895465469
23.509795748228431,-0.098811611966319254
23.559816590245934,-0.099852704501265432
23.609837432263447,-0.099895270581126336
23.65985827428095,-0.098938884545347827
23.70987911629846,-0.09699311024864421
23.75989995831597,-0.094077405422466676
23.809920800333465,-0.090220927097871662
23.859941642350982,-0.085462240035320713
23.909962484368485,-0.079848931077307395
23.959983326385995,-0.07343713328026702
24.010004168403501,-0.06629096458428374
24.060025010421015,-0.058481886634102143
24.110045852438521,-0.050087990163076856
