angle,data
float,float
,
0.0,0.0
0.050020842017507297,0.099874892348548044
0.10004168403501459,0.19875103636366204
0.15006252605252191,0.29563967118934176
0.20008336807002919,0.38957191104973921
0.25010421008753647,0.47960843410119336
0.30012505210504381,0.56484887564511688
0.35014589412255109,0.64444083176966294
0.40016673614005838,0.71758838338380782
0.45018757815756566,0.783560055403559
0.50020842017507294,0.84169613149847333
0.55022926219258028,0.89141525125106424
0.60025010421008762,0.93222022375754143
0.65027094622759485,0.96370299953391203
0.70029178824510219,0.98554875100840977
0.75031263026260941,0.99753902079535239
0.80033347228011675,0.99955390626770757
0.85035431429762409,0.99157325858265566
0.90037515631513132,0.97367688416989839
0.95039599833263866,0.94604374666783297
1.0004168403501459,0.90895017728822636
1.0504376823676533,0.86276711150572905
1.1004585243851606,0.80795637970532108
1.1504793664026678,0.74506608888118997
1.2005002084201752,0.6747251415700265
1.2505210504376825,0.5976369468293754
1.3005418924551897,0.51457238615121326
1.3505627344726969,0.42636210465158403
1.4005835764902044,0.33388820462434554
1.4506044185077116,0.23807542452344391
1.5006252605252188,0.13988189158383496
1.5506461025427263,0.040289540554796242
1.6006669445602335,-0.059705705641763224
1.6506877865777407,-0.15910389513464074
1.7007086285952482,-0.25691104661614306
1.7507294706127554,-0.35214908914928966
1.8007503126302626,-0.4438656428714069
1.8507711546477701,-0.53114354278712672
1.9007919966652773,-0.61311001041292068
1.9508128386827845,-0.68894538155678153
2.0008336807002918,-0.75789130295529872
2.050854522717799,-0.81925831580181308
2.1008753647353067,-0.87243275033041046
2.1508962067528139,-0.91688286250995343
2.2009170487703211,-0.95216415148125422
2.2509378907878284,-0.97792380456303818
2.3009587328053356,-0.99390422537667333
2.3509795748228428,-0.99994560980843383
2.4010004168403505,-0.99598754404969414
2.4510212588578577,-0.98206960873465776
2.5010421008753649,-0.95833098313424914
2.5510629428928722,-0.92500905336422701
2.6010837849103794,-0.88243703852542865
2.6511046269278866,-0.83104065851473063
2.7011254689453938,-0.771333876828595
2.7511463109629015,-0.70391376093114033
2.8011671529804087,-0.6294545115830309
2.851187994997916,-0.54870072083784882
2.9012088370154232,-0.46245992612596032
2.9512296790329304,-0.37159453488498173
3.0012505210504377,-0.27701320049049871
3.0512713630679453,-0.17966173572767766
3.1012922050854526,-0.08051365466900523
3.1513130471029598,0.019439562460690198
3.201333889120467,0.11919838408062582
3.2513547311379742,0.21776522256396796
3.3013755731554815,0.31415441010820683
3.3513964151729887,0.40740205540735813
3.4014172571904964,0.49657568255932949
3.4514380992080036,0.58078355581942886
3.5014589412255108,0.65918359695254847
3.5514797832430181,0.73099180601053682
3.6015006252605253,0.79549010132705034
3.6515214672780325,0.85203350032997371
3.7015423092955402,0.90005656936333112
3.7515631513130474,0.93907907802050394
3.8015839933305546,0.96871080144546207
3.8516048353480619,0.98865542257901751
3.9016256773655691,0.99871349532766551
3.9516465193830763,0.99878443902334191
4.0016673614005835,0.98886754422950884
4.0516882034180908,0.96906197983551667
4.101709045435598,0.93956580136829604
4.1517298874531052,0.90067397043825825
4.2017507294706133,0.85277540512493377
4.2517715714881206,0.79634909079847715
4.3017924135056278,0.73195929026879092
4.351813255523135,0.66024990116076299
4.4018340975406423,0.58193801694182157
4.4518549395581495,0.49780675599149676
4.5018757815756567,0.40869743042225226
4.5518966235931639,0.31550113296333093
4.6019174656106712,0.21914982603872721
4.6519383076281784,0.12060702214845266
4.7019591496456856,0.020858148749228492
4.7519799916631928,-0.079099306014260004
4.802000833680701,-0.17826576818491888
4.8520216756982082,-0.27564957372690407
4.9020425177157154,-0.37027688516013185
4.9520633597332226,-0.46120142992931917
5.0020842017507299,-0.54751396312394784
5.0521050437682371,-0.62835135992199764
5.1021258857857443,-0.70290524683306799
5.1521467278032516,-0.77043008542850533
5.2021675698207588,-0.83025062772128588
5.252188411838266,-0.88176866864189574
5.3022092538557732,-0.92446902808549258
5.3522300958732805,-0.95792470270991015
5.4022509378907877,-0.98180113596655727
5.4522717799082958,-0.99585956366392725
5.502292621925803,-0.99995940160810182
5.5523134639433103,-0.99405965144386099
5.6023343059608175,-0.97821931063799195
5.6523551479783247,-0.95259678250497037
5.702375989995832,-0.91744829217475077
5.7523968320133392,-0.87312532434298151
5.8024176740308464,-0.8200711084261243
5.8524385160483536,-0.75881618626990832
5.9024593580658609,-0.68997310673400769
5.9524802000833681,-0.61423030020706282
6.0025010421008753,-0.53234519430686189
6.0525218841183825,-0.44513663960863759
6.1025427261358907,-0.3534767211441503
6.1525635681533979,-0.25828203755653023
6.2025844101709051,-0.16050453511925067
6.2526052521884123,-0.061121988279024229
6.3026260942059196,0.03887177808288951
6.3526469362234268,0.13847682689362514
6.402667778240934,0.23669710825353255
6.4526886202584413,0.33255041992928874
6.5027094622759485,0.4250782293704285
6.5527303042934557,0.51335525902918611
6.6027511463109629,0.59649873913050599
6.6527719883284702,0.67367723536457913
6.7027928303459774,0.7441189632250278
6.7528136723634855,0.80711950584941183
6.8028345143809927,0.86204885818368626
6.8528553563985,0.90835772702902706
6.9028761984160072,0.94558302397056915
6.9528970404335144,0.9733524962588207
7.0029178824510216,0.99138844933495862
7.0529387244685289,0.99951052377477623
7.1029595664860361,0.99763749888185971
7.1529804085035433,0.98578810489407265
7.2030012505210506,0.96408083568128788
7.2530220925385578,0.93273276380738868
7.303042934556065,0.89205736980591255
7.3530637765735722,0.84246140737656794
7.4030846185910804,0.78444083585063895
7.4531054606085876,0.71857586060060674
7.5031263026260948,0.64552513098984698
7.553147144643602,0.56601915388289004
7.6031679866611093,0.48085298858109182
7.6531888286786165,0.39087829623431675
7.7032096706961237,0.29699482323447052
7.753230512713631,0.20014140375689693
7.8032513547311382,0.1012865714241709
7.8532721967486454,0.0014188739755946398
7.9032930387661526,-0.098463012204354994
7.9533138807836599,-0.19736026884397126
8.0033347228011671,-0.29428392396113362
8.0533555648186752,-0.38826474157728785
8.1033764068361815,-0.47836291407149739
8.1533972488536897,-0.56367746025111787
8.203418090871196,-0.64335523515837756
8.2534389328887041,-0.71659946151493803
8.3034597749062105,-0.78267769748994853
8.3534806169237186,-0.84092916111404759
8.4035014589412267,-0.89077133809513587
8.453522300958733,-0.93170580695786409
8.5035431429762411,-0.96332322325544484
8.5535639849937475,-0.98530741301169267
8.6035848270112556,-0.99743853445892727
8.6536056690287619,-0.99959527645434498
8.7036265110462701,-0.99175607159073353
8.7536473530637764,-0.97399931187041633
8.8036681950812845,-0.94650256478569006
8.8536890370987908,-0.90954079764495566
8.903709879116299,-0.86348362790125133
8.9537307211338053,-0.80879162697991602
9.0037515631513134,-0.74601171456704385
9.0537724051688215,-0.67577168941586774
9.1037932471863279,-0.59877395136293088
9.153814089203836,-0.51578847733386168
9.2038349312213423,-0.42764512157868645
9.2538557732388504,-0.33522531713420822
9.3038766152563568,-0.23945326149887067
9.3538974572738649,-0.14128667466320824
9.4039182992913712,-0.04170722191562555
9.4539391413088794,0.058289302804714609
9.5039599833263857,0.15770293484137179
9.5539808253438938,0.25553953846131278
9.6040016673614019,0.35082074820634396
9.6540225093789083,0.44259375254192423
9.7040433513964164,0.52994082196689052
9.7540641934139227,0.61198848630302516
9.8040850354314308,0.68791626939170247
9.8541058774489372,0.7569648938506045
9.9041267194664453,0.81844387384307993
9.9541475614839516,0.87173841993241141
10.00416840350146,0.91631558697256887
10.054189245518966,0.95172960355650504
10.104210087536474,0.97762632972760577
10.154230929553981,0.99374679837715363
10.204251771571489,0.99992980491389261
10.254272613588997,0.99611351930898295
10.304293455606503,0.98233610439592844
10.354314297624011,0.95873533424246271
10.404335139641518,0.92554721641069126
10.454355981659026,0.8831036318828569
10.504376823676532,0.83182901625348848
10.55439766569404,0.77223611537595038
10.604418507711546,0.70492085790695314
10.654439349729055,0.63055639602348956
10.704460191746561,0.54988637390506134
10.754481033764069,0.46371749129625633
10.804501875781575,0.37291143651409103
10.854522717799084,0.27837626956990708
10.904543559816592,0.18105734157464465
10.954564401834098,0.081927841233308887
11.004585243851606,-0.018020937036341552
11.054606085869112,-0.11778950604209103
11.104626927886621,-0.21638018068331236
11.154647769904127,-0.31280705479605081
11.204668611921635,-0.40610586020886658
11.254689453939141,-0.49534360941882549
11.304710295956649,-0.57962792546104247
11.354731137974156,-0.6581159656730331
11.404751979991664,-0.73002285011638313
11.45477282200917,-0.79462951037147278
11.504793664026678,-0.85128988021744589
11.554814506044186,-0.89943735629058441
11.604835348061693,-0.93859046411460645
11.654856190079201,-0.96835767284258745
11.704877032096707,-0.98844131056310724
11.754897874114215,-0.99864054101761435
11.804918716131722,-0.998853371961819
11.85493955814923,-0.98907767508753663
11.904960400166736,-0.96941120730575692
11.954981242184244,-0.94005063317810844
12.005002084201751,-0.90128955827241053
12.055022926219259,-0.85351559310872038
12.105043768236765,-0.79720647705643433
12.155064610254273,-0.73292530094340236
12.205085452271781,-0.66131487615098949
12.255106294289288,-0.58309130650405527
12.305127136306796,-0.49903682723692583
12.355147978324302,-0.40999198264569264
12.40516882034181,-0.31684722065019316
12.455189662359317,-0.22053398832009855
12.505210504376825,-0.12201541740969349
12.555231346394331,-0.022276693046050532
12.605252188411839,0.077684798116447851
12.655273030429345,0.17686944175673269
12.705293872446854,0.27428539202438162
12.75531471446436,0.36895848999223552
12.805335556481868,0.45994200523994222
12.855356398499376,0.54632610315254326
12.905377240516883,0.62724694326125885
12.955398082534391,0.70189531764308022
13.005418924551897,0.76952474299519957
13.055439766569405,0.82945892546364863
13.105460608586911,0.88109852357782403
13.15548145060442,0.92392714166166978
13.205502292621926,0.95751649378737169
13.255523134639434,0.98153068663211784
13.30554397665694,0.99572957840933274
13.355564818674448,0.99997118028513077
13.405585660691955,0.99421307626581279
13.455606502709463,0.97851284735755317
13.505627344726971,0.95302749575667911
13.555648186744477,0.91801187482863567
13.605669028761985,0.87381614057583179
13.655689870779492,0.82088225007969462
13.705710712797,0.75973954193245319
13.755731554814506,0.69099944285435888
13.805752396832014,0.61534935343007791
13.855773238849521,0.53354577410692472
13.905794080867029,0.44640674019483734
13.955814922884535,0.35480364151813354
14.005835764902043,0.25965250852239147
14.05585660691955,0.16190485197543142
14.105877448937058,0.062538147865232083
14.155898290954566,-0.037453937354150098
14.205919132972072,-0.13707148342126158
14.25593997498958,-0.23531831546396931
14.305960817007087,-0.3312119657422723
14.355981659024595,-0.42379349831992486
14.406002501042101,-0.51213709841810695
14.456023343059609,-0.59535933055776846
14.506044185077116,-0.6726279729091762
14.556065027094624,-0.7431703395053173
14.60608586911213,-0.80628100709698303
14.656106711129638,-0.86132886938111286
14.706127553147144,-0.90776344806007936
14.756148395164653,-0.9451203976214273
14.806169237182161,-0.97302614879024252
14.856190079199667,-0.99120164421970103
14.906210921217175,-0.99946512906288865
14.956231763234682,-0.9977339685201928
15.00625260525219,-0.98602547418681274
15.056273447269696,-0.96445673093691053
15.106294289287204,-0.93324342607555744
15.15631513130471,-0.89269769246696395
15.206335973322219,-0.8432249872076728
15.256356815339725,-0.78532003705800046
15.306377657357233,-0.71956189117734248
15.356398499374739,-0.64660813063601708
15.406419341392247,-0.56718829260842862
15.456440183409756,-0.48209657500565045
15.506461025427262,-0.39218389450099989
15.55648186744477,-0.29834937736832146
15.606502709462276,-0.20153136822458309
15.656523551479784,-0.10269804658922373
15.706544393497291,-0.0028377450947059887
15.756565235514799,0.097050933833997211
15.806586077532305,0.19596910399772469
15.856606919549813,0.29292758427924531
15.90662776156732,0.38695679044855857
15.956648603584828,0.47711643099949363
16.006669445602334,0.56250491005918946
16.056690287619844,0.64226834334152494
16.10671112963735,0.71560909698490005
16.156731971654857,0.78179376388617738
16.206752813672363,0.84016049776735691
16.256773655689873,0.89012563163445524
16.306794497707379,0.93118951444398357
16.356815339724886,0.96294150761045205
16.406836181742392,0.98506409138978379
16.456857023759902,0.99733604007488397
16.506877865777408,0.99963463425140164
16.556898707794915,0.99193688799115254
16.606919549812421,0.97431977871126163
16.656940391829931,0.94695947740044539
16.706961233847437,0.91012958691017365
16.756982075864943,0.86419840592776009
16.807002917882453,0.80962524599166763
16.85702375989996,0.74695583837885171
16.907044601917466,0.67681687679519209
16.957065443934972,0.59990975044215089
17.007086285952482,0.51700353012889244
17.057107127969989,0.42892727756875892
17.107127969987495,0.33656175476699979
17.157148812005001,0.24083061640594583
17.207169654022511,0.14269117330362996
17.257190496040018,0.043124819311290703
17.307211338057524,-0.056872782619384089
17.357232180075034,-0.15630165705987109
17.40725302209254,-0.25416751585316777
17.457273864110046,-0.34949170098953053
17.507294706127553,-0.44132097118076208
17.557315548145063,-0.52873703426747476
17.607336390162569,-0.61086573013523482
17.657357232180075,-0.6868857723105799
17.707378074197582,-0.75603696082087546
17.757398916215092,-0.81762778418956172
17.807419758232598,-0.87104233454681568
17.857440600250104,-0.91574646670463744
17.907461442267611,-0.95129313960555684
17.95748228428512,-0.97732688673057244
18.007503126302627,-0.99358737076223536
18.057523968320133,-0.99991198695629646
18.107544810337643,-0.99623748918817989
18.157565652355149,-0.98260062241385882
18.207586494372656,-0.95913775522051103
18.257607336390162,-0.92608351614145368
18.307628178407672,-0.88376844737219262
18.357649020425178,-0.83261569935043322
18.407669862442685,-0.77313679925418455
18.457690704460191,-0.70592653573301345
18.507711546477701,-0.63165701102505423
18.557732388495207,-0.55107091993861967
18.607753230512714,-0.46497412290847395
18.657774072530223,-0.37422758739626028
18.70779491454773,-0.27973877822099164
18.757815756565236,-0.18245258291618349
18.807836598582742,-0.083341862860126154
18.857857440600252,0.016602275332163675
18.907878282617759,0.11638039086920947
18.957899124635265,0.21499470318512756
19.007919966652771,0.31145906973936283
19.057940808670281,0.40480884743628187
19.107961650687788,0.49411053905040386
19.157982492705294,0.57847112819318036
19.208003334722804,0.65704700947158334
19.25802417674031,0.72905242453703645
19.308045018757817,0.79376731966429248
19.358065860775323,0.85054454628440812
19.408086702792833,0.89881633246661985
19.458107544810339,0.93809996063428391
19.508128386827845,0.96800259473781125
19.558149228845352,0.98822520861282881
19.608170070862862,0.99856557624005993
19.658190912880368,0.9989202940043207
19.708211754897874,0.98928581473006538
19.758232596915381,0.96975848315311686
19.808253438932891,0.94053357247387648
19.858274280950397,0.90190333162648295
19.908295122967903,0.85425406279118443
19.958315964985413,0.79806225837482248
20.008336807002919,0.73388983608959257
20.058357649020426,0.6623785197792188
20.108378491037932,0.58424342218432279
20.158399333055442,0.50026589381923248
20.208420175072948,0.41128570947147952
20.258441017090455,0.31819267045884897
20.308461859107961,0.22191770662148222
20.358482701125471,0.12342356702896254
20.408503543142977,0.023695192495334964
20.458524385160484,-0.07627013382325698
20.508545227177994,-0.17547275925422015
20.5585660691955,-0.27292065812931054
20.608586911213006,-0.36763935203549736
20.658607753230513,-0.4586816545933079
20.708628595248022,-0.54513714331503937
20.758649437265529,-0.62614126382423307
20.808670279283035,-0.70088397539436798
20.858691121300541,-0.76861785135131577
20.908711963318051,-0.82866555333567626
20.958732805335558,-0.88042660468235356
21.008753647353064,-0.92338339518368484
21.05877448937057,-0.95710635718844128
21.10879533138808,-0.98125826127580906
21.158816173405587,-0.99559758854759806
21.208837015423093,-0.99998094581580788
21.258857857440603,-0.99436449953365214
21.308878699458109,-0.97880441413077168
21.358899541475616,-0.95345629036926793
21.408920383493122,-0.91857360933700138
21.458941225510632,-0.87450519763820789
21.508962067528138,-0.82169173912952942
21.558982909545644,-0.76066136808403306
21.609003751563151,-0.69202438785161213
21.659024593580661,-0.61646716782908439
21.709045435598167,-0.53474527977030095
21.759066277615673,-0.44767594207303929
21.809087119633183,-0.35612984759986788
21.85910796165069,-0.26102245675468572
21.909128803668196,-0.16330484288405284
21.959149645685702,-0.063954181549369035
22.009170487703212,0.036036021222980261
22.059191329720718,0.13566586399599007
22.109212171738225,0.23393904893054115
22.159233013755731,0.3298728447578767
22.209253855773241,0.42250791408649763
22.259274697790747,0.51091790677038385
22.309295539808254,0.59421872340502113
22.35931638182576,0.67157735631619642
22.40933722384327,0.74222021963183027
22.459358065860776,0.80544088513610779
22.509378907878283,0.86060714654749315
22.559399749895793,0.90716734157779244
22.609420591913299,0.94465586855176953
22.659441433930805,0.97269784242116686
22.709462275948312,0.99101284361295972
22.759483117965821,0.99941772222343384
22.809503959983328,0.99782842951613837
22.859524802000834,0.9862608584087581
22.90954564401834,0.96483068454402643
22.95956648603585,0.93375220953398075
23.009587328053357,0.89333621794511731
23.059608170070863,0.84398686945454893
23.109629012088373,0.78619765725562574
23.159649854105879,0.72054647312893172
23.209670696123386,0.64768982852786916
23.259691538140892,0.56835628946801842
23.309712380158402,0.48333919087127669
23.359733222175908,0.39348870322135043
23.409754064193415,0.29970333086390488
23.459774906210921,0.20292092696843941
23.509795748228431,0.10410931500212017
23.559816590245937,0.0042566105008547302
23.609837432263443,-0.095638660080271609
23.65985827428095,-0.19457754462561944
23.70987911629846,-0.29157065487426365
23.759899958315966,-0.38564806029673027
23.809920800333472,-0.47586898739460198
23.859941642350982,-0.5613312274299227
23.909962484368489,-0.64118015850723009
23.959983326385995,-0.71461729178749711
24.010004168403501,-0.78090825637178085
24.060025010421011,-0.83939014300588299
24.110045852438517,-0.88947813316895996
24.160066694456024,-0.93067134725530032
24.21008753647353,-0.96255785336740629
24.26010837849104,-0.98481878663254063
24.310129220508546,-0.99723153784956442
24.360150062526053,-0.99967197957964249
24.410170904543563,-0.99211570741989119
24.460191746561069,-0.97463828404726727
24.510212588578575,-0.94741448359224201
24.560233430596082,-0.91071654389852974
24.610254272613592,-0.86491144414625631
24.660275114631098,-0.81045723506233858
24.710295956648604,-0.74789845841590252
